 0 
SECTION
 2 
ENTITIES
 0 
POLYLINE
 8 
1
 66 
 1 
 10 
0.0
 20 
0.0
 30 
0.0
 0 
VERTEX
 8 
1
 10 
0.0
 20 
0.5
 30 
0.0
 0 
VERTEX
 8 
1
 10 
0.032
 20 
0.5051
 30 
0.0
 0 
VERTEX
 8 
1
 10 
0.059000
 20 
0.50977
 30 
0.0
 0 
VERTEX
 8 
1
 10 
0.086
 20 
0.51481
 30 
0.0
 0 
VERTEX
 8 
1
 10 
0.115
 20 
0.5205
 30 
0.0
 0 
VERTEX
 8 
1
 10 
0.141
 20 
0.5257
 30 
0.0
 0 
VERTEX
 8 
1
 10 
0.17
 20 
0.53144
 30 
0.0
 0 
VERTEX
 8 
1
 10 
0.195
 20 
0.53625
 30 
0.0
 0 
VERTEX
 8 
1
 10 
0.224
 20 
0.54158
 30 
0.0
 0 
VERTEX
 8 
1
 10 
0.249
 20 
0.54597
 30 
0.0
 0 
VERTEX
 8 
1
 10 
0.277
 20 
0.5507
 30 
0.0
 0 
VERTEX
 8 
1
 10 
0.304
 20 
0.55512
 30 
0.0
 0 
VERTEX
 8 
1
 10 
0.33
 20 
0.55926
 30 
0.0
 0 
VERTEX
 8 
1
 10 
0.351
 20 
0.5625
 30 
0.0
 0 
VERTEX
 8 
1
 10 
0.377
 20 
0.56632
 30 
0.0
 0 
VERTEX
 8 
1
 10 
0.402
 20 
0.56982
 30 
0.0
 0 
VERTEX
 8 
1
 10 
0.425
 20 
0.57294
 30 
0.0
 0 
VERTEX
 8 
1
 10 
0.444
 20 
0.57548
 30 
0.0
 0 
VERTEX
 8 
1
 10 
0.465
 20 
0.57826
 30 
0.0
 0 
VERTEX
 8 
1
 10 
0.483
 20 
0.58058
 30 
0.0
 0 
VERTEX
 8 
1
 10 
0.512
 20 
0.58411
 30 
0.0
 0 
VERTEX
 8 
1
 10 
0.542
 20 
0.58735
 30 
0.0
 0 
VERTEX
 8 
1
 10 
0.569
 20 
0.58989
 30 
0.0
 0 
VERTEX
 8 
1
 10 
0.595
 20 
0.59206
 30 
0.0
 0 
VERTEX
 8 
1
 10 
0.619
 20 
0.5939
 30 
0.0
 0 
VERTEX
 8 
1
 10 
0.662
 20 
0.59688
 30 
0.0
 0 
VERTEX
 8 
1
 10 
0.705
 20 
0.59936
 30 
0.0
 0 
VERTEX
 8 
1
 10 
0.746
 20 
0.60086
 30 
0.0
 0 
VERTEX
 8 
1
 10 
0.786
 20 
0.60082
 30 
0.0
 0 
VERTEX
 8 
1
 10 
0.809
 20 
0.59974
 30 
0.0
 0 
VERTEX
 8 
1
 10 
0.842
 20 
0.59629
 30 
0.0
 0 
VERTEX
 8 
1
 10 
0.869
 20 
0.59133
 30 
0.0
 0 
VERTEX
 8 
1
 10 
0.893
 20 
0.58492
 30 
0.0
 0 
VERTEX
 8 
1
 10 
0.918
 20 
0.57581
 30 
0.0
 0 
VERTEX
 8 
1
 10 
0.9393
 20 
0.5656
 30 
0.0
 0 
VERTEX
 8 
1
 10 
0.9662
 20 
0.54802
 30 
0.0
 0 
VERTEX
 8 
1
 10 
0.9744
 20 
0.54107
 30 
0.0
 0 
VERTEX
 8 
1
 10 
0.99075
 20 
0.52284
 30 
0.0
 0 
VERTEX
 8 
1
 10 
0.99557
 20 
0.51503
 30 
0.0
 0 
VERTEX
 8 
1
 10 
0.99908
 20 
0.50636
 30 
0.0
 0 
VERTEX
 8 
1
 10 
1
 20 
0.49988
 30 
0.0
 0 
VERTEX
 8 
1
 10 
0.9955
 20 
0.48784
 30 
0.0
 0 
VERTEX
 8 
1
 10 
0.9868
 20 
0.48079
 30 
0.0
 0 
VERTEX
 8 
1
 10 
0.9834
 20 
0.47895
 30 
0.0
 0 
VERTEX
 8 
1
 10 
0.9486
 20 
0.46845
 30 
0.0
 0 
VERTEX
 8 
1
 10 
0.9085
 20 
0.46296
 30 
0.0
 0 
VERTEX
 8 
1
 10 
0.87
 20 
0.46002
 30 
0.0
 0 
VERTEX
 8 
1
 10 
0.843
 20 
0.45863
 30 
0.0
 0 
VERTEX
 8 
1
 10 
0.818
 20 
0.45763
 30 
0.0
 0 
VERTEX
 8 
1
 10 
0.785
 20 
0.45658
 30 
0.0
 0 
VERTEX
 8 
1
 10 
0.754
 20 
0.45577
 30 
0.0
 0 
VERTEX
 8 
1
 10 
0.732
 20 
0.4553
 30 
0.0
 0 
VERTEX
 8 
1
 10 
0.709
 20 
0.45493
 30 
0.0
 0 
VERTEX
 8 
1
 10 
0.679
 20 
0.45469
 30 
0.0
 0 
VERTEX
 8 
1
 10 
0.654
 20 
0.45475
 30 
0.0
 0 
VERTEX
 8 
1
 10 
0.624
 20 
0.45514
 30 
0.0
 0 
VERTEX
 8 
1
 10 
0.595
 20 
0.45579
 30 
0.0
 0 
VERTEX
 8 
1
 10 
0.566
 20 
0.45663
 30 
0.0
 0 
VERTEX
 8 
1
 10 
0.54
 20 
0.4575
 30 
0.0
 0 
VERTEX
 8 
1
 10 
0.513
 20 
0.45851
 30 
0.0
 0 
VERTEX
 8 
1
 10 
0.489
 20 
0.45953
 30 
0.0
 0 
VERTEX
 8 
1
 10 
0.468
 20 
0.46052
 30 
0.0
 0 
VERTEX
 8 
1
 10 
0.448
 20 
0.46154
 30 
0.0
 0 
VERTEX
 8 
1
 10 
0.428
 20 
0.46264
 30 
0.0
 0 
VERTEX
 8 
1
 10 
0.404
 20 
0.4641
 30 
0.0
 0 
VERTEX
 8 
1
 10 
0.376
 20 
0.46601
 30 
0.0
 0 
VERTEX
 8 
1
 10 
0.35
 20 
0.46793
 30 
0.0
 0 
VERTEX
 8 
1
 10 
0.318
 20 
0.47043
 30 
0.0
 0 
VERTEX
 8 
1
 10 
0.286
 20 
0.47296
 30 
0.0
 0 
VERTEX
 8 
1
 10 
0.257
 20 
0.47523
 30 
0.0
 0 
VERTEX
 8 
1
 10 
0.231
 20 
0.4773
 30 
0.0
 0 
VERTEX
 8 
1
 10 
0.204
 20 
0.47956
 30 
0.0
 0 
VERTEX
 8 
1
 10 
0.174
 20 
0.48231
 30 
0.0
 0 
VERTEX
 8 
1
 10 
0.146
 20 
0.48514
 30 
0.0
 0 
VERTEX
 8 
1
 10 
0.115
 20 
0.48852
 30 
0.0
 0 
VERTEX
 8 
1
 10 
0.084
 20 
0.49205
 30 
0.0
 0 
VERTEX
 8 
1
 10 
0.054
 20 
0.49539
 30 
0.0
 0 
VERTEX
 8 
1
 10 
0.021
 20 
0.49857
 30 
0.0
 0 
VERTEX
 8 
1
 10 
0.0
 20 
0.5
 30 
0.0
 0 
SEQEND
 8 
1
 0 
ENDSEC
 0 
EOF
